#Column 1: wavenumber k
#Column 2: non-linear density fluctuation power spectrum lcdm
#Column 3: non-linear density fluctuation power spectrum screening exact
#Column 4: Taylor expanded
#qv = 2.000000
#evaluated at a = 1.000000

0.01  10562.8  10563.2  10563.5
0.010559  10841.6  10842.2  10842.5
0.0111492  11108.8  11109.4  11109.8
0.0117724  11362.5  11363.1  11363.6
0.0124305  11600.9  11601.6  11602.1
0.0131253  11822.5  11823.3  11823.9
0.013859  12025.6  12026.6  12027.3
0.0146337  12208.6  12209.7  12210.5
0.0154517  12370.3  12371.4  12372.3
0.0163154  12509.6  12511  12512
0.0172274  12625.3  12626.9  12628
0.0181904  12716.4  12718.1  12719.4
0.0192072  12782.3  12784.1  12785.4
0.0202809  12822.7  12824.9  12826.4
0.0214145  12837  12839.6  12841.3
0.0226116  12825  12827.8  12829.7
0.0238755  12786.7  12789.5  12791.5
0.0252101  12722.4  12725.7  12728
0.0266193  12632.3  12636.1  12638.8
0.0281073  12516.7  12520.8  12523.7
0.0296784  12376  12380.2  12383.3
0.0313374  12211.4  12216.2  12219.7
0.0330891  12023.5  12029.2  12033.1
0.0349387  11813.1  11819.2  11823.4
0.0368917  11581.1  11587.2  11591.7
0.0389539  11329  11335.7  11340.7
0.0411314  11058.2  11066.3  11071.8
0.0434305  10769.6  10778.2  10784.2
0.0458582  10464.7  10473.2  10479.6
0.0484216  10145.2  10154.4  10161.3
0.0511283  9813.46  9824.43  9831.97
0.0539863  9470.18  9481.89  9490
0.057004  9117.2  9128.85  9137.41
0.0601904  8756.73  8768.73  8777.8
0.063555  8391.51  8405.93  8415.87
0.0671076  8022.15  8037.51  8048.12
0.0708588  7650.55  7665.77  7676.86
0.0748197  7278.83  7293.89  7305.46
0.0790019  6910.33  6928.53  6941.15
0.083418  6544.93  6564.3  6577.65
0.0880809  6184.28  6203.41  6217.26
0.0930045  5830.02  5848.16  5862.38
0.0982033  5485.91  5508  5523.4
0.103693  5150.64  5174.14  5190.33
0.109489  4825.34  4848.48  4865.15
0.115609  4510.99  4532.57  4549.51
0.122071  4211.14  4236.98  4255.13
0.128895  3923.66  3951.19  3970.13
0.1361  3648.85  3675.89  3695.29
0.143708  3387.06  3412.2  3431.78
0.151741  3141.24  3170.48  3191.19
0.160223  2908.98  2940.21  2961.73
0.169179  2689.69  2720.37  2742.29
0.178636  2483.24  2511.71  2533.74
0.188621  2292.01  2324.16  2347.19
0.199165  2113.68  2148.18  2172.02
0.210298  1946.96  1980.89  2005.09
0.222053  1791.45  1822.95  1847.2
0.234465  1649.02  1683.57  1708.65
0.247572  1517.82  1555.13  1581.03
0.26141  1396.08  1432.89  1459.15
0.276023  1283.3  1317.55  1343.83
0.291452  1180.89  1217.38  1244.33
0.307744  1087.72  1127.43  1155.22
0.324946  1001.72  1041.11  1069.27
0.34311  922.451  959.246  987.472
0.362289  850.837  888.949  917.701
0.38254  786.526  828.361  857.956
0.403924  727.399  769.186  799.211
0.426502  673.095  712.375  742.571
0.450343  624.101  663.673  694.303
0.475516  580.625  624.428  655.882
0.502097  540.808  584.916  616.874
0.530163  504.384  546.181  578.468
0.559798  471.446  512.46  545.167
0.59109  442.341  488.009  521.436
0.624131  415.846  462.188  496.16
0.659019  391.777  436.075  470.543
0.695856  369.946  412.399  447.345
0.734754  350.249  397.535  432.933
0.775825  332.513  380.733  416.594
0.819192  316.611  363.044  399.481
0.864984  302.339  345.892  382.978
0.913335  288.339  336.432  373.464
0.964388  275.925  324.922  362.114
1.0183  265.011  312.344  349.958
1.07522  255.526  299.458  337.76
1.13532  244.61  291.835  329.395
1.19878  234.969  282.639  319.782
1.26579  226.63  272.528  309.641
1.33655  219.542  262.182  299.6
1.41126  210.207  253.988  290.058
1.49014  201.584  244.98  279.882
1.57344  194.123  235.461  269.619
1.66139  187.768  225.91  259.729
1.75426  179.097  216.552  248.562
1.85232  170.55  206.752  236.921
1.95586  163.071  196.959  225.708
2.06519  156.566  187.549  215.167
2.18063  148.272  177.487  203.123
2.30253  139.697  167.107  190.629
2.43123  132.082  157.206  178.952
2.56714  125.352  147.983  168.214
2.71063  117.563  138.236  156.558
2.86215  109.353  128.238  144.547
3.02214  102.016  119.004  133.574
3.19107  95.4712  110.589  123.637
3.36945  88.604  102.097  113.607
3.5578  81.4206  93.4543  103.447
3.75667  74.9989  85.6386  94.3062
3.96666  69.2605  78.6207  86.1212
4.18839  63.5902  71.7678  78.2239
4.42251  57.6826  64.7796  70.2503
4.66973  52.4173  58.5583  63.1714
4.93075  47.7181  53.0385  56.8941
5.20637  43.3337  47.959  51.1476
5.4974  38.9738  43.0088  45.6047
5.8047  35.1022  38.6228  40.7093
6.12917  31.6631  34.7667  36.3915
6.47178  28.5151  31.2308  32.4851
6.83354  25.4062  27.6884  28.7052
7.21552  22.6526  24.5749  25.3866
7.61886  20.2181  21.8535  22.4793
8.04474  18.0492  19.4529  19.918
8.49442  15.9895  17.2205  17.5411
8.96925  14.1751  15.2596  15.4591
9.47061  12.5767  13.5381  13.6364
10  11.1684  12.0258  12.041
